2022-05-30 13:14:05.826139 0.006808186811948363
2022-05-30 13:14:10.697479 0.4205285152933181
2022-05-30 13:14:15.811429 0.3923069071609024
2022-05-30 13:14:20.786968 0.21268946678446932
2022-05-30 13:14:25.742543 0.15152790508893121
2022-05-30 13:14:30.712694 0.12124014501649573
2022-05-30 13:14:35.815062 0.10140345704168689
2022-05-30 13:14:40.783725 0.08400908995297994
2022-05-30 13:14:45.752003 0.06830181546290406
2022-05-30 13:14:50.862298 0.05276027383698523
2022-05-30 13:14:55.826332 0.04148950223249412
2022-05-30 13:15:00.792957 0.03025388059921906
2022-05-30 13:15:05.759966 0.020394112685090476
2022-05-30 13:15:10.868012 0.012823747134838803
2022-05-30 13:15:15.831864 0.00961211420254214
2022-05-30 13:15:20.801786 0.008926798653492255
2022-05-30 13:15:25.902484 0.008428890997351994
2022-05-30 13:15:30.872612 0.007347958174866422
2022-05-30 13:15:35.834644 0.0068268443107916636
2022-05-30 13:15:40.942740 0.006631208091376522
2022-05-30 13:15:45.908809 0.006860877970342399
2022-05-30 13:15:50.876789 0.0067572677969213015
2022-05-30 13:15:55.982220 0.006360258141752218
2022-05-30 13:16:00.950744 0.0060769954684122204
2022-05-30 13:16:05.916275 0.006289189324899563
2022-05-30 13:16:11.019625 0.0061939987489889065
2022-05-30 13:16:15.987272 0.007115018418579296
2022-05-30 13:16:20.964942 0.0061198859609612145
2022-05-30 13:16:25.927685 0.006495931393996566
2022-05-30 13:16:31.035752 0.006161343816528551
2022-05-30 13:16:36.014241 0.005875802240960611
2022-05-30 13:16:40.962330 0.006350263861876031
2022-05-30 13:16:46.067677 0.00616541688737154
2022-05-30 13:16:51.041901 0.006386594833609706
2022-05-30 13:16:56.019048 0.006119195690299848
2022-05-30 13:17:00.969803 0.005860019838815268
2022-05-30 13:17:06.075945 0.005791351304982207
2022-05-30 13:17:11.049822 0.005881252956736881
2022-05-30 13:17:16.013080 0.006212198105356079
2022-05-30 13:17:21.125714 0.005690372270422314
2022-05-30 13:17:26.083993 0.006310759578082524
2022-05-30 13:17:31.056345 0.006029731481171084
2022-05-30 13:17:36.160400 0.0059471589220495375
2022-05-30 13:17:41.129950 0.006324897866303454
2022-05-30 13:17:46.098168 0.005696449416607189
2022-05-30 13:17:51.209160 0.0058142202525224345
2022-05-30 13:17:56.176583 0.005837646049677128
2022-05-30 13:18:01.135506 0.005869148260285946
2022-05-30 13:18:06.103293 0.00540193597599926
2022-05-30 13:18:11.216312 0.005610303401419647
2022-05-30 13:18:16.178344 0.005434155436385545
2022-05-30 13:18:21.148787 0.005950360609041751
2022-05-30 13:18:26.257399 0.005895500188774672
2022-05-30 13:18:31.223937 0.006198141919790094
2022-05-30 13:18:36.201927 0.005869834565685975
2022-05-30 13:18:41.291418 0.0064285941814488665
2022-05-30 13:18:46.258108 0.006325399540958029
2022-05-30 13:18:51.232406 0.0061286173023053295
2022-05-30 13:18:56.237992 0.005729696548434684
2022-05-30 13:19:01.302071 0.005707615838500766
2022-05-30 13:19:06.272062 0.005539052802945199
2022-05-30 13:19:11.245754 0.005607429133471533
2022-05-30 13:19:16.365703 0.005457203162324517
2022-05-30 13:19:21.311419 0.005197404940978769
2022-05-30 13:19:26.278286 0.005182155954125953
2022-05-30 13:19:31.245830 0.005122253228833521
2022-05-30 13:19:36.345991 0.006061327834834389
2022-05-30 13:19:41.317276 0.005565784241079597
2022-05-30 13:19:46.292568 0.005596414241797592
2022-05-30 13:19:51.389193 0.005581474897793012
2022-05-30 13:19:56.355517 0.005609481070109081
2022-05-30 13:20:01.322752 0.005880793550742533
2022-05-30 13:20:06.301758 0.005865310958656783
2022-05-30 13:20:11.401475 0.0059024716525690945
2022-05-30 13:20:16.363952 0.005609959514386304
2022-05-30 13:20:21.333391 0.005538051843516703
2022-05-30 13:20:26.454537 0.006083285714151501
2022-05-30 13:20:31.407795 0.005955347597891984
2022-05-30 13:20:36.377690 0.006305776585187279
2022-05-30 13:20:41.480330 0.005898686120409171
2022-05-30 13:20:46.451582 0.0062732727569578955
2022-05-30 13:20:51.418573 0.006023255860603869
2022-05-30 13:20:56.385642 0.00605287371416298
2022-05-30 13:21:01.492471 0.006124456515882282
2022-05-30 13:21:06.457160 0.005601285358337467
2022-05-30 13:21:11.423709 0.005669485742360226
2022-05-30 13:21:16.567844 0.006191898972719824
2022-05-30 13:21:21.496755 0.005515397720841817
2022-05-30 13:21:26.482132 0.00585394406149701
2022-05-30 13:21:31.575130 0.0061247354924093885
2022-05-30 13:21:36.562606 0.00562350796034127
2022-05-30 13:21:41.547250 0.0062987021454948295
2022-05-30 13:21:46.613578 0.005850872257318558
2022-05-30 13:21:51.583405 0.006366682459592649
2022-05-30 13:21:56.554594 0.006325524495627498
2022-05-30 13:22:01.513099 0.006333226915225522
2022-05-30 13:22:06.622002 0.0058354293013076885
2022-05-30 13:22:11.600776 0.005959574673140844
2022-05-30 13:22:16.553654 0.005870146306597332
2022-05-30 13:22:21.658268 0.005789606296169593
2022-05-30 13:22:26.634720 0.005870472637294155
2022-05-30 13:22:31.602435 0.005809231351025788
2022-05-30 13:22:36.571112 0.00640241192262892
2022-05-30 13:22:41.677235 0.006328458701541402
2022-05-30 13:22:46.640186 0.006382287234490284
2022-05-30 13:22:51.607674 0.006338439996804054
2022-05-30 13:22:56.719137 0.005671244844524943
2022-05-30 13:23:01.683634 0.005962761903852741
2022-05-30 13:23:06.650666 0.005488772441596861
2022-05-30 13:23:11.616410 0.006222669849098369
2022-05-30 13:23:16.723843 0.006574449764707799
2022-05-30 13:23:21.694686 0.006070870771908931
2022-05-30 13:23:26.659411 0.0059156544540402275
2022-05-30 13:23:31.756257 0.005928583766496005
2022-05-30 13:23:36.727831 0.006337048775693212
2022-05-30 13:23:41.716674 0.006458897586555447
2022-05-30 13:23:46.805260 0.006307010692897586
2022-05-30 13:23:51.776004 0.00608906193544478
2022-05-30 13:23:56.752196 0.005830427511434093
2022-05-30 13:24:01.709519 0.005810517947424577
2022-05-30 13:24:06.816670 0.006342895132791807
2022-05-30 13:24:11.775726 0.005782183658736946
2022-05-30 13:24:16.745137 0.006117968528045592
2022-05-30 13:24:21.846965 0.006270095278615312
2022-05-30 13:24:26.825751 0.0062609860296007
2022-05-30 13:24:31.783052 0.006416346401637116
2022-05-30 13:24:36.887036 0.005519670601031186
2022-05-30 13:24:41.855497 0.005861954317247957
2022-05-30 13:24:46.822802 0.0062372419541364315
2022-05-30 13:24:51.791761 0.006359514352863381
2022-05-30 13:24:56.896904 0.006317115505174083
2022-05-30 13:25:01.863896 0.006320323290379072
2022-05-30 13:25:06.829868 0.006027158107470456
2022-05-30 13:25:11.941122 0.0058786489160436405
2022-05-30 13:25:16.903782 0.0059004816779301235
2022-05-30 13:25:21.872249 0.0056961625993371436
2022-05-30 13:25:26.846515 0.006307473502005789
2022-05-30 13:25:31.944346 0.006057735347192731
2022-05-30 13:25:36.916110 0.006260920194259329
2022-05-30 13:25:41.881840 0.0063292451316253155
2022-05-30 13:25:46.987193 0.006029774504305589
2022-05-30 13:25:51.963000 0.006271770172575084
2022-05-30 13:25:56.920892 0.006305216952596571
2022-05-30 13:26:02.032005 0.006609720383394479
2022-05-30 13:26:06.995917 0.006651178799297022
2022-05-30 13:26:11.962510 0.00661209723835034
2022-05-30 13:26:16.945601 0.00584646557487343
2022-05-30 13:26:22.044889 0.005957361729607367
2022-05-30 13:26:27.011729 0.0057804682916700965
2022-05-30 13:26:32.116064 0.006576521521023374
2022-05-30 13:26:37.083114 0.006126189071690484
2022-05-30 13:26:42.058053 0.005932800261271929
2022-05-30 13:26:47.019322 0.006648990473016573
2022-05-30 13:26:52.125974 0.006885184208987033
2022-05-30 13:26:57.092031 0.006201540569356284
2022-05-30 13:27:02.060155 0.006233896676539936
2022-05-30 13:27:07.163518 0.006063136339189997
2022-05-30 13:27:12.135883 0.005971920779741
2022-05-30 13:27:17.099467 0.006472905094541039
2022-05-30 13:27:22.077397 0.006099255356743795
2022-05-30 13:27:27.176308 0.006059641240800317
2022-05-30 13:27:32.139311 0.006323972920621673
2022-05-30 13:27:37.122551 0.006032268937920211
2022-05-30 13:27:42.214714 0.006050073005366116
2022-05-30 13:27:47.178391 0.006163558959468958
2022-05-30 13:27:52.150070 0.006232216820512972
2022-05-30 13:27:57.281161 0.006178795141545999
2022-05-30 13:28:02.229697 0.0057601297317868465
2022-05-30 13:28:07.199953 0.005824849344759947
2022-05-30 13:28:12.294728 0.0065642912531016315
2022-05-30 13:28:17.264586 0.005990970348952148
2022-05-30 13:28:22.234096 0.005872949031894715
2022-05-30 13:28:27.199815 0.006336195894120123
2022-05-30 13:28:32.305527 0.0056724454235818865
2022-05-30 13:28:37.269405 0.006242427096301373
2022-05-30 13:28:42.237966 0.005987021665513544
2022-05-30 13:28:47.338914 0.005731266039850106
2022-05-30 13:28:52.309359 0.0059301054190413725
2022-05-30 13:28:57.279529 0.005881213853241798
2022-05-30 13:29:02.381810 0.005970482186968254
