2022-05-30 12:53:18.051808 None
2022-05-30 12:54:01.041422 0.008309971637691952
2022-05-30 12:54:06.058216 0.008055745430054308
2022-05-30 12:54:11.028507 0.00753854364542152
2022-05-30 12:54:15.989987 0.007796485224546042
2022-05-30 12:54:21.096818 0.007117914276439192
2022-05-30 12:54:26.062601 0.006939565697442218
2022-05-30 12:54:31.038510 0.007069392729569343
2022-05-30 12:54:36.003012 0.006575428776652008
2022-05-30 12:54:41.110937 0.006007742066484659
2022-05-30 12:54:46.079560 0.006244157138061858
2022-05-30 12:54:51.047262 0.0062480952792075455
2022-05-30 12:54:56.150697 0.005894320569897949
2022-05-30 12:55:01.117900 0.00502287833360304
2022-05-30 12:55:06.085633 0.005103712786537118
2022-05-30 12:55:11.053391 0.004517461634613893
2022-05-30 12:55:16.158577 0.005303746849669406
2022-05-30 12:55:21.126204 0.004974633394537652
2022-05-30 12:55:26.095015 0.004850044661789529
2022-05-30 12:55:31.070603 0.004816039414064736
2022-05-30 12:55:36.168040 0.004905350398013212
2022-05-30 12:55:41.135744 0.004515773018872035
2022-05-30 12:55:46.101939 0.004935602632130214
2022-05-30 12:55:51.210309 0.00445275409855493
2022-05-30 12:55:56.184221 0.005046808335967619
2022-05-30 12:56:01.143654 0.004821803642441757
2022-05-30 12:56:06.247586 0.004574038852610111
2022-05-30 12:56:11.216794 0.0045443450639793895
2022-05-30 12:56:16.183760 0.004358130348596959
2022-05-30 12:56:21.151377 0.004384140679869728
2022-05-30 12:56:26.259646 0.0037341901204550336
2022-05-30 12:56:31.225873 0.0035321650539664427
2022-05-30 12:56:36.191271 0.004308094892872205
2022-05-30 12:56:41.298205 0.0035813747540397057
2022-05-30 12:56:46.265121 0.004124009293370592
2022-05-30 12:56:51.232473 0.0037687304645489727
2022-05-30 12:56:56.339232 0.004137374453366313
2022-05-30 12:57:01.307477 0.004582341230220022
2022-05-30 12:57:06.273448 0.004034636084783509
2022-05-30 12:57:11.379317 0.004187280616211492
2022-05-30 12:57:16.346902 0.003911499482819839
2022-05-30 12:57:21.313611 0.0037335120328601994
2022-05-30 12:57:26.283232 0.003946889808062764
2022-05-30 12:57:31.388300 0.0041373877427632174
2022-05-30 12:57:36.357049 0.003799547951330032
2022-05-30 12:57:41.322950 0.0035521009851536833
2022-05-30 12:57:46.428014 0.003545711826791597
2022-05-30 12:57:51.394638 0.0038504553376019087
2022-05-30 12:57:56.364578 0.003524799128124702
2022-05-30 12:58:01.480352 0.0037267420207433132
2022-05-30 12:58:06.438582 0.003236496870459674
2022-05-30 12:58:11.405301 0.0033784291724384095
2022-05-30 12:58:16.372172 0.003516025003219643
2022-05-30 12:58:21.478281 0.003198031007708367
2022-05-30 12:58:26.447641 0.003980384556339546
2022-05-30 12:58:31.414861 0.004027838676114874
2022-05-30 12:58:36.519652 0.0033520184987987705
2022-05-30 12:58:41.489465 0.003466774553322848
2022-05-30 12:58:46.453429 0.003231609197047856
2022-05-30 12:58:51.558908 0.0036369494545747676
2022-05-30 12:58:56.538278 0.0036772075592018364
2022-05-30 12:59:01.493361 0.003829807655699557
2022-05-30 12:59:06.461925 0.0036388623687480027
2022-05-30 12:59:11.568541 0.0038051974929207673
2022-05-30 12:59:16.536099 0.0040933947338287705
2022-05-30 12:59:21.502123 0.003381792196637909
2022-05-30 12:59:26.610148 0.004091419630454907
2022-05-30 12:59:31.576549 0.004004483360392847
2022-05-30 12:59:36.560743 0.0036282424439784983
2022-05-30 12:59:41.513934 0.0038004065432991206
2022-05-30 12:59:46.617517 0.0038376300789798347
2022-05-30 12:59:51.584122 0.0037365926195923995
2022-05-30 12:59:56.553195 0.004197161930475471
2022-05-30 13:00:01.655996 0.004089420582550946
2022-05-30 13:00:06.625526 0.004011209920510833
2022-05-30 13:00:11.592593 0.004105292674831238
2022-05-30 13:00:16.700342 0.004013297924157293
2022-05-30 13:00:21.662699 0.004200945523119659
2022-05-30 13:00:26.634377 0.0040248850364536515
2022-05-30 13:00:31.739554 0.004462044123488601
2022-05-30 13:00:36.706741 0.00425537465969548
2022-05-30 13:00:41.673267 0.0038635477441038646
2022-05-30 13:00:46.781971 0.004595055848706155
2022-05-30 13:00:51.748306 0.004415626258407392
2022-05-30 13:00:56.713779 0.004331008498061508
2022-05-30 13:01:01.822177 0.0047787043005472155
2022-05-30 13:01:06.789839 0.004894833389323706
2022-05-30 13:01:11.756131 0.004631708936798819
2022-05-30 13:01:16.723711 0.005240436958306737
2022-05-30 13:01:21.827752 0.005348902773146447
2022-05-30 13:01:26.800034 0.005475355003185049
2022-05-30 13:01:31.767302 0.005856092812186532
2022-05-30 13:01:36.870520 0.00619142677472736
2022-05-30 13:01:41.836728 0.00707343753771954
2022-05-30 13:01:46.805868 0.007988196310078743
2022-05-30 13:01:51.910858 0.009407438007910522
2022-05-30 13:01:56.876754 0.011786633378447237
2022-05-30 13:02:01.847339 0.014681163377644853
2022-05-30 13:02:06.952040 0.017583778935737572
2022-05-30 13:02:11.918971 0.021175891373917705
2022-05-30 13:02:16.886617 0.023771032404931846
2022-05-30 13:02:21.863033 0.027047032156455722
2022-05-30 13:02:26.972424 0.030446154151980882
2022-05-30 13:02:31.941047 0.03364114781029057
2022-05-30 13:02:36.906927 0.03639687074113469
2022-05-30 13:02:42.002072 0.03939227538592199
2022-05-30 13:02:46.967938 0.0422943351455718
2022-05-30 13:02:51.935932 0.045678234418295355
2022-05-30 13:02:57.041773 0.04750710286978844
2022-05-30 13:03:02.008383 0.04736534406529348
2022-05-30 13:03:06.977818 0.0510376314648205
2022-05-30 13:03:11.943783 0.052173456738932006
2022-05-30 13:03:17.056972 0.053435047506583205
2022-05-30 13:03:22.017717 0.05439187003054181
2022-05-30 13:03:26.983791 0.05469146798923649
2022-05-30 13:03:32.092254 0.0544792853934844
2022-05-30 13:03:37.057609 0.054171855172131314
2022-05-30 13:03:42.026022 0.05552380474631591
2022-05-30 13:03:47.129196 0.05476998659628142
2022-05-30 13:03:52.099367 0.05381140378750786
2022-05-30 13:03:57.074161 0.05289964530507781
2022-05-30 13:04:02.032189 0.05172343597820646
2022-05-30 13:04:07.139007 0.050349635611413465
2022-05-30 13:04:12.106327 0.04700736683057757
2022-05-30 13:04:17.074819 0.04502313651855139
2022-05-30 13:04:22.181181 0.04437748337280615
2022-05-30 13:04:27.147780 0.04066242172911622
2022-05-30 13:04:32.114996 0.03956342211173479
2022-05-30 13:04:37.084418 0.03663498100295353
2022-05-30 13:04:42.189719 0.032922292752968756
2022-05-30 13:04:47.158252 0.03207218104227318
2022-05-30 13:04:52.124486 0.029540437022205636
2022-05-30 13:04:57.089967 0.02741259539184647
2022-05-30 13:05:02.196314 0.02446537313432761
2022-05-30 13:05:07.163320 0.022627005602173712
2022-05-30 13:05:12.132484 0.019409049246263653
2022-05-30 13:05:17.237476 0.018175890148414524
2022-05-30 13:05:22.205219 0.016294890344906953
2022-05-30 13:05:27.173026 0.013038028537757864
2022-05-30 13:05:32.139492 0.011864920288942869
2022-05-30 13:05:37.280896 0.009730082826000082
2022-05-30 13:05:42.212921 0.008646143010021331
2022-05-30 13:05:47.181903 0.007997944361004565
2022-05-30 13:05:52.287194 0.007344347311711753
2022-05-30 13:05:57.254384 0.007429845934878693
2022-05-30 13:06:02.223319 0.006670849584024244
2022-05-30 13:06:07.329325 0.006299865129564961
2022-05-30 13:06:12.294262 0.005945271033091112
2022-05-30 13:06:17.262384 0.0054404487196395785
2022-05-30 13:06:22.230875 0.005152489367639668
2022-05-30 13:06:27.335924 0.0050233323686943825
2022-05-30 13:06:32.302379 0.004898130661228879
2022-05-30 13:06:37.272178 0.00485621990119751
2022-05-30 13:06:42.375220 0.004978158376456391
2022-05-30 13:06:47.345779 0.003931253178028081
2022-05-30 13:06:52.313139 0.0038705017387472857
2022-05-30 13:06:57.417165 0.004467671683846138
2022-05-30 13:07:02.390911 0.003643908672229016
2022-05-30 13:07:07.361196 0.0044327177861691915
2022-05-30 13:07:12.328140 0.0039870967220895425
2022-05-30 13:07:17.432474 0.003978593560584556
2022-05-30 13:07:22.394099 0.004017263964836511
2022-05-30 13:07:27.361930 0.0035211730986046286
2022-05-30 13:07:32.467578 0.004062500492308476
2022-05-30 13:07:37.435097 0.003763455059928955
2022-05-30 13:07:42.403908 0.0037232278433692993
2022-05-30 13:07:47.507435 0.004008474814467733
2022-05-30 13:07:52.475514 0.003988314523371216
2022-05-30 13:07:57.443657 0.0040039907113351095
2022-05-30 13:08:02.410341 0.003769131284368235
2022-05-30 13:08:07.517584 0.0034505181250441778
2022-05-30 13:08:12.483595 0.0033666859769543173
2022-05-30 13:08:17.451664 0.003938184043741623
2022-05-30 13:08:22.560350 0.0032284976572812558
2022-05-30 13:08:27.525047 0.0028075305581045156
2022-05-30 13:08:32.491811 0.0032035685228999702
2022-05-30 13:08:37.598229 0.0037017358831537843
2022-05-30 13:08:42.566118 0.003695574555501273
2022-05-30 13:08:47.568502 0.003363695840084239
2022-05-30 13:08:52.505070 0.0034818684926375795
2022-05-30 13:08:57.607108 0.0031826627468498512
2022-05-30 13:09:02.578220 0.0034398925257622683
2022-05-30 13:09:07.547193 0.003698344681093074
2022-05-30 13:09:12.646222 0.0034427780931864166
2022-05-30 13:09:17.618775 0.003701701207461966
2022-05-30 13:09:22.586527 0.0034558487832992446
2022-05-30 13:09:27.560958 0.0035503567290350057
2022-05-30 13:09:32.657113 0.003954399866179184
2022-05-30 13:09:37.623645 0.003452348174072285
2022-05-30 13:09:42.589609 0.004277062749258242
2022-05-30 13:09:47.692827 0.004161892088000101
2022-05-30 13:09:52.660711 0.0033423000315256617
2022-05-30 13:09:57.628524 0.0034583191843840836
2022-05-30 13:10:02.600390 0.003844067658686551
2022-05-30 13:10:07.702597 0.00370552217339594
2022-05-30 13:10:12.669415 0.0034711689504667983
2022-05-30 13:10:17.640541 0.003949181363614595
2022-05-30 13:10:22.745252 0.0033766644572320163
2022-05-30 13:10:27.710241 0.004153153750104207
2022-05-30 13:10:32.678301 0.0039089710925045325
2022-05-30 13:10:37.645423 0.0025272281047285265
2022-05-30 13:10:42.807207 0.0033354491892329968
2022-05-30 13:10:47.718058 0.003491035413641991
2022-05-30 13:10:52.683230 0.0032955318394876313
2022-05-30 13:10:57.794855 0.0034433760664568627
2022-05-30 13:11:02.759817 0.002892512708877647
2022-05-30 13:11:07.736584 0.003306203245646883
2022-05-30 13:11:12.837162 0.0036698997313763166
2022-05-30 13:11:17.806102 0.0032649265758871848
2022-05-30 13:11:22.768911 0.003276318872937651
2022-05-30 13:11:27.871870 0.0034347518638840977
2022-05-30 13:11:32.838471 0.0037857195822648074
2022-05-30 13:11:37.807648 0.0034006742918626745
2022-05-30 13:11:42.919652 0.00436761561225274
2022-05-30 13:11:47.912018 0.003705085321459839
2022-05-30 13:11:52.854505 0.003318636200091997
2022-05-30 13:11:57.873729 0.003738523068396589
2022-05-30 13:12:02.927115 0.004388481436022496
2022-05-30 13:12:07.890585 0.0034540539171639554
2022-05-30 13:12:12.858479 0.003477583437434603
2022-05-30 13:12:22.930927 0.004882710235813391
2022-05-30 13:12:27.898751 0.005318079866680381
2022-05-30 13:12:33.001496 0.004797746595625149
2022-05-30 13:12:37.974657 0.004913629464965486
