2022-05-26 12:48:59.188147 0.47916850114945736
2022-05-26 12:49:04.198697 0.47916850114945736
2022-05-26 12:49:09.205291 0.47916850114945736
2022-05-26 12:49:14.213504 0.47916850114945736
2022-05-26 12:49:19.217594 0.47916850114945736
2022-05-26 12:49:24.219812 0.47916850114945736
2022-05-26 12:49:29.227098 0.47916850114945736
2022-05-26 12:49:34.230340 0.47916850114945736
2022-05-26 12:49:39.230916 0.47916850114945736
2022-05-26 12:49:44.233725 0.47916850114945736
2022-05-26 12:49:49.240148 0.47916850114945736
2022-05-26 12:49:54.247315 0.47916850114945736
2022-05-26 12:49:59.252960 0.47916850114945736
2022-05-26 12:50:04.259410 0.47916850114945736
2022-05-26 12:50:09.263679 0.47916850114945736
2022-05-26 12:50:14.272992 0.47916850114945736
2022-05-26 12:50:19.275182 0.47916850114945736
2022-05-26 12:50:24.281666 0.47916850114945736
2022-05-26 12:50:29.291387 0.47916850114945736
2022-05-26 12:50:34.295201 0.47916850114945736
2022-05-26 12:50:39.304196 0.47916850114945736
2022-05-26 12:50:44.318614 0.47916850114945736
2022-05-26 12:50:49.330634 0.47916850114945736
2022-05-26 12:50:54.340602 0.47916850114945736
2022-05-26 12:50:59.343738 0.47916850114945736
2022-05-26 12:51:04.351376 0.47916850114945736
2022-05-26 12:51:09.356799 0.47916850114945736
2022-05-26 12:51:14.365278 0.47916850114945736
2022-05-26 12:51:19.373668 0.47916850114945736
2022-05-26 12:51:24.374892 0.47916850114945736
2022-05-26 12:51:29.389153 0.47916850114945736
2022-05-26 12:51:34.400003 0.47916850114945736
2022-05-26 12:51:39.414262 0.47916850114945736
2022-05-26 12:51:44.414763 0.47916850114945736
2022-05-26 12:51:49.427743 0.47916850114945736
2022-05-26 12:51:54.428068 0.47916850114945736
2022-05-26 12:51:59.430086 0.47916850114945736
2022-05-26 12:52:04.437313 0.47916850114945736
2022-05-26 12:52:09.450170 0.47916850114945736
2022-05-26 12:52:14.450310 0.47916850114945736
2022-05-26 12:52:19.450697 0.47916850114945736
2022-05-26 12:52:24.461237 0.47916850114945736
2022-05-26 12:52:29.463311 0.47916850114945736
2022-05-26 12:52:34.470589 0.47916850114945736
2022-05-26 12:52:39.474822 0.47916850114945736
2022-05-26 12:52:44.487358 0.47916850114945736
2022-05-26 12:52:49.500238 0.47916850114945736
2022-05-26 12:52:54.512377 0.47916850114945736
2022-05-26 12:52:59.512877 0.47916850114945736
2022-05-26 12:53:04.513400 0.47916850114945736
2022-05-26 12:53:09.527576 0.47916850114945736
2022-05-26 12:53:14.538362 0.47916850114945736
2022-05-26 12:53:19.539968 0.47916850114945736
2022-05-26 12:53:24.548687 0.47916850114945736
2022-05-26 12:53:29.559710 0.47916850114945736
2022-05-26 12:53:34.564867 0.47916850114945736
2022-05-26 12:53:39.573395 0.47916850114945736
2022-05-26 12:53:44.580119 0.47916850114945736
2022-05-26 12:53:49.588068 0.47916850114945736
2022-05-26 12:53:54.596992 0.47916850114945736
2022-05-26 12:53:59.603322 0.47916850114945736
2022-05-26 12:54:04.618465 0.47916850114945736
2022-05-26 12:54:09.631399 0.47916850114945736
2022-05-26 12:54:14.638774 0.47916850114945736
2022-05-26 12:54:19.644087 0.47916850114945736
2022-05-26 12:54:24.646087 0.47916850114945736
2022-05-26 12:54:29.647066 0.47916850114945736
2022-05-26 12:54:34.659495 0.47916850114945736
2022-05-26 12:54:39.665224 0.47916850114945736
2022-05-26 12:54:44.675679 0.47916850114945736
2022-05-26 12:54:49.690088 0.47916850114945736
2022-05-26 12:54:54.700958 0.47916850114945736
2022-05-26 12:54:59.712768 0.47916850114945736
2022-05-26 12:55:04.721407 0.47916850114945736
2022-05-26 12:55:09.721561 0.47916850114945736
2022-05-26 12:55:14.723002 0.47916850114945736
2022-05-26 12:55:19.729818 0.47916850114945736
2022-05-26 12:55:24.740264 0.47916850114945736
2022-05-26 12:55:29.751388 0.47916850114945736
2022-05-26 12:55:34.759033 0.47916850114945736
2022-05-26 12:55:39.766438 0.47916850114945736
2022-05-26 12:55:44.772918 0.47916850114945736
2022-05-26 12:55:49.777363 0.47916850114945736
2022-05-26 12:55:54.786587 0.47916850114945736
2022-05-26 12:55:59.802214 0.47916850114945736
2022-05-26 12:56:04.816713 0.47916850114945736
2022-05-26 12:56:09.822042 0.47916850114945736
2022-05-26 12:56:14.828347 0.47916850114945736
2022-05-26 12:56:19.842553 0.47916850114945736
2022-05-26 12:56:24.856652 0.47916850114945736
2022-05-26 12:56:29.857368 0.47916850114945736
2022-05-26 12:56:34.872178 0.47916850114945736
2022-05-26 12:56:39.877223 0.47916850114945736
2022-05-26 12:56:44.886384 0.47916850114945736
2022-05-26 12:56:49.887379 0.47916850114945736
2022-05-26 12:56:54.893244 0.47916850114945736
2022-05-26 12:56:59.906435 0.47916850114945736
2022-05-26 12:57:04.917324 0.47916850114945736
2022-05-26 12:57:09.928369 0.47916850114945736
2022-05-26 12:57:14.938441 0.47916850114945736
2022-05-26 12:57:19.938722 0.47916850114945736
2022-05-26 12:57:24.951899 0.47916850114945736
2022-05-26 12:57:29.962767 0.47916850114945736
2022-05-26 12:57:34.976445 0.47916850114945736
2022-05-26 12:57:39.991025 0.47916850114945736
2022-05-26 12:57:45.001434 0.47916850114945736
2022-05-26 12:57:50.003219 0.47916850114945736
2022-05-26 12:57:55.015868 0.47916850114945736
2022-05-26 12:58:00.028326 0.47916850114945736
2022-05-26 12:58:05.042810 0.47916850114945736
2022-05-26 12:58:10.057212 0.47916850114945736
2022-05-26 12:58:15.065209 0.47916850114945736
2022-05-26 12:58:20.074614 0.47916850114945736
2022-05-26 12:58:25.081389 0.47916850114945736
2022-05-26 12:58:30.092835 0.47916850114945736
2022-05-26 12:58:35.095374 0.47916850114945736
2022-05-26 12:58:40.111187 0.47916850114945736
2022-05-26 12:58:45.115759 0.47916850114945736
2022-05-26 12:58:50.124620 0.47916850114945736
2022-05-26 12:58:55.138807 0.47916850114945736
2022-05-26 12:59:00.144237 0.47916850114945736
2022-05-26 12:59:05.159328 0.47916850114945736
2022-05-26 12:59:10.168991 0.47916850114945736
2022-05-26 12:59:15.170667 0.47916850114945736
2022-05-26 12:59:20.178303 0.47916850114945736
2022-05-26 12:59:25.188275 0.47916850114945736
2022-05-26 12:59:30.196677 0.47916850114945736
2022-05-26 12:59:35.204377 0.47916850114945736
2022-05-26 12:59:40.213209 0.47916850114945736
2022-05-26 12:59:45.227234 0.47916850114945736
2022-05-26 12:59:50.228378 0.47916850114945736
2022-05-26 12:59:55.232864 0.47916850114945736
2022-05-26 13:00:00.234662 0.47916850114945736
2022-05-26 13:00:05.235260 0.47916850114945736
2022-05-26 13:00:10.235654 0.47916850114945736
2022-05-26 13:00:15.245841 0.47916850114945736
2022-05-26 13:00:20.247728 0.47916850114945736
2022-05-26 13:00:25.250402 0.47916850114945736
2022-05-26 13:00:30.263504 0.47916850114945736
2022-05-26 13:00:35.267962 0.47916850114945736
2022-05-26 13:00:40.275140 0.47916850114945736
2022-05-26 13:00:45.284489 0.47916850114945736
2022-05-26 13:00:50.286695 0.47916850114945736
2022-05-26 13:00:55.298090 0.47916850114945736
2022-05-26 13:01:00.306851 0.47916850114945736
2022-05-26 13:01:05.312775 0.47916850114945736
2022-05-26 13:01:10.318057 0.47916850114945736
2022-05-26 13:01:15.328944 0.47916850114945736
2022-05-26 13:01:20.331931 0.47916850114945736
2022-05-26 13:01:25.333426 0.47916850114945736
2022-05-26 13:01:30.335687 0.47916850114945736
2022-05-26 13:01:35.350547 0.47916850114945736
2022-05-26 13:01:40.358171 0.47916850114945736
2022-05-26 13:01:45.367042 0.47916850114945736
2022-05-26 13:01:50.369809 0.47916850114945736
2022-05-26 13:01:55.371363 0.47916850114945736
2022-05-26 13:02:00.381087 0.47916850114945736
2022-05-26 13:02:05.387584 0.47916850114945736
2022-05-26 13:02:10.388485 0.47916850114945736
2022-05-26 13:02:15.389690 0.47916850114945736
2022-05-26 13:02:20.398431 0.47916850114945736
2022-05-26 13:02:25.404877 0.47916850114945736
2022-05-26 13:02:30.416469 0.47916850114945736
2022-05-26 13:02:35.427006 0.47916850114945736
2022-05-26 13:02:40.435485 0.47916850114945736
2022-05-26 13:02:45.446818 0.47916850114945736
2022-05-26 13:02:50.449966 0.47916850114945736
2022-05-26 13:02:55.461734 0.47916850114945736
2022-05-26 13:03:00.474192 0.47916850114945736
2022-05-26 13:03:05.479409 0.47916850114945736
2022-05-26 13:03:10.486012 0.47916850114945736
2022-05-26 13:03:15.488567 0.47916850114945736
2022-05-26 13:03:20.499745 0.47916850114945736
2022-05-26 13:03:25.514533 0.47916850114945736
2022-05-26 13:03:30.518514 0.47916850114945736
2022-05-26 13:03:35.526728 0.47916850114945736
2022-05-26 13:03:40.527369 0.47916850114945736
2022-05-26 13:03:45.539285 0.47916850114945736
2022-05-26 13:03:50.546476 0.47916850114945736
2022-05-26 13:03:55.557688 0.47916850114945736
2022-05-26 13:04:00.568624 0.47916850114945736
2022-05-26 13:04:05.571619 0.47916850114945736
2022-05-26 13:04:10.580926 0.47916850114945736
2022-05-26 14:10:29.152125 0
2022-05-26 14:13:21.451445 0
2022-05-26 14:13:26.453247 0
2022-05-26 14:13:31.453943 0
2022-05-26 14:13:36.464568 0
2022-05-26 14:13:41.473072 0
2022-05-26 14:13:46.482775 0
2022-05-26 14:13:51.488269 0
2022-05-26 14:13:56.495654 0
2022-05-26 14:14:01.510468 0
2022-05-26 14:14:06.518445 0
2022-05-26 14:14:11.520306 0
2022-05-26 14:14:16.534366 0
2022-05-26 14:14:21.538514 0
