2022-05-26 15:12:29.053316 35662.53788871488
2022-05-26 15:12:34.059476 35662.53788871488
2022-05-26 15:12:39.069808 35662.53788871488
2022-05-26 15:12:44.083764 35662.53788871488
2022-05-26 15:12:49.087901 35662.53788871488
2022-05-26 15:12:54.102353 35662.53788871488
2022-05-26 15:12:59.113565 35662.53788871488
2022-05-26 15:13:04.128890 35662.53788871488
2022-05-26 15:13:09.138018 35662.53788871488
2022-05-26 15:13:14.149227 35662.53788871488
2022-05-26 15:13:19.156322 35662.53788871488
2022-05-26 15:13:24.157757 35662.53788871488
2022-05-26 15:13:29.168497 35662.53788871488
2022-05-26 15:13:34.171076 35662.53788871488
2022-05-26 15:13:39.171547 35662.53788871488
2022-05-26 15:13:44.185194 35662.53788871488
2022-05-26 15:13:49.185684 35662.53788871488
2022-05-26 15:13:54.200549 35662.53788871488
2022-05-26 15:13:59.215460 35662.53788871488
2022-05-26 15:14:04.227131 35662.53788871488
2022-05-26 15:14:09.236106 35662.53788871488
2022-05-26 15:14:14.244557 35662.53788871488
2022-05-26 15:14:19.257145 35662.53788871488
2022-05-26 15:14:24.269901 35662.53788871488
2022-05-26 15:14:29.275320 35662.53788871488
2022-05-26 15:14:34.282892 35662.53788871488
2022-05-26 15:14:39.291052 35662.53788871488
2022-05-26 15:14:44.302640 35662.53788871488
2022-05-26 15:14:49.304581 35662.53788871488
2022-05-26 15:14:54.310785 35662.53788871488
2022-05-26 15:14:59.314264 35662.53788871488
2022-05-26 15:15:04.320309 35662.53788871488
2022-05-26 15:15:09.333063 35662.53788871488
2022-05-26 15:15:14.348095 35662.53788871488
2022-05-26 15:15:19.355640 35662.53788871488
2022-05-26 15:15:24.369641 35662.53788871488
2022-05-26 15:15:29.383546 35662.53788871488
2022-05-26 15:15:34.391685 35662.53788871488
2022-05-26 15:15:39.401950 35662.53788871488
2022-05-26 15:15:44.406794 35662.53788871488
2022-05-26 15:15:49.408103 35662.53788871488
2022-05-26 15:15:54.422180 35662.53788871488
2022-05-26 15:15:59.426753 35662.53788871488
2022-05-26 15:16:04.437065 35662.53788871488
2022-05-26 15:16:09.445484 35662.53788871488
2022-05-26 15:16:14.459310 35662.53788871488
2022-05-26 15:16:19.471011 35662.53788871488
2022-05-26 15:16:24.479476 35662.53788871488
2022-05-26 15:16:29.481635 35662.53788871488
2022-05-26 15:16:34.488455 35662.53788871488
2022-05-26 15:16:39.494953 35662.53788871488
2022-05-26 15:16:44.496125 35662.53788871488
2022-05-26 15:16:49.510726 35662.53788871488
2022-05-26 15:16:54.525211 35662.53788871488
2022-05-26 15:16:59.530855 35662.53788871488
2022-05-26 15:17:04.544314 35662.53788871488
2022-05-26 15:17:09.545880 35662.53788871488
2022-05-26 15:17:14.550499 35662.53788871488
2022-05-26 15:17:19.556928 35662.53788871488
2022-05-26 15:17:24.564014 35662.53788871488
2022-05-26 15:17:29.572036 35662.53788871488
2022-05-26 15:17:34.574119 35662.53788871488
2022-05-26 15:17:39.588338 35662.53788871488
2022-05-26 15:17:44.599890 35662.53788871488
2022-05-26 15:17:49.612512 35662.53788871488
2022-05-26 15:17:54.623947 35662.53788871488
2022-05-26 15:17:59.626750 35662.53788871488
2022-05-26 15:18:04.630095 35662.53788871488
2022-05-26 15:18:09.643466 35662.53788871488
2022-05-26 15:18:14.654764 35662.53788871488
2022-05-26 15:18:19.657964 35662.53788871488
2022-05-26 15:18:24.666780 35662.53788871488
2022-05-26 15:18:29.681499 35662.53788871488
2022-05-26 15:18:34.695065 35662.53788871488
2022-05-26 15:18:39.706307 35662.53788871488
2022-05-26 15:18:44.718403 35662.53788871488
2022-05-26 15:18:49.731796 35662.53788871488
2022-05-26 15:18:54.735686 35662.53788871488
2022-05-26 15:18:59.741761 35662.53788871488
2022-05-26 15:19:04.749341 35662.53788871488
2022-05-26 15:19:09.763397 35662.53788871488
2022-05-26 15:19:14.778284 35662.53788871488
2022-05-26 15:19:19.783123 35662.53788871488
2022-05-26 15:19:24.790183 35662.53788871488
2022-05-26 15:19:29.799064 35662.53788871488
2022-05-26 15:19:34.804093 35662.53788871488
2022-05-26 15:19:39.811933 35662.53788871488
2022-05-26 15:19:44.812804 35662.53788871488
2022-05-26 15:19:49.826933 35662.53788871488
2022-05-26 15:19:54.842338 35662.53788871488
2022-05-26 15:19:59.854639 35662.53788871488
2022-05-26 15:20:04.858895 35662.53788871488
2022-05-26 15:20:09.865122 35662.53788871488
2022-05-26 15:20:14.872707 35662.53788871488
2022-05-26 15:20:19.879760 35662.53788871488
2022-05-26 15:20:24.888668 35662.53788871488
2022-05-26 15:20:29.897592 35662.53788871488
2022-05-26 15:20:34.901644 35662.53788871488
2022-05-26 15:20:39.904978 35662.53788871488
2022-05-26 15:20:44.912512 35662.53788871488
2022-05-26 15:20:49.918731 35662.53788871488
2022-05-26 15:20:54.921310 35662.53788871488
2022-05-26 15:20:59.932278 35662.53788871488
2022-05-26 15:21:04.943528 35662.53788871488
2022-05-26 15:21:09.957529 35662.53788871488
2022-05-26 15:21:14.958555 35662.53788871488
2022-05-26 15:21:19.962004 35662.53788871488
2022-05-26 15:21:24.967470 35662.53788871488
2022-05-26 15:21:29.967948 35662.53788871488
2022-05-26 15:21:34.982878 35662.53788871488
2022-05-26 15:21:39.985852 35662.53788871488
2022-05-26 15:21:44.991993 35662.53788871488
2022-05-26 15:21:50.003175 35662.53788871488
2022-05-26 15:21:55.011274 35662.53788871488
2022-05-26 15:22:00.021048 35662.53788871488
2022-05-26 15:22:05.028903 35662.53788871488
2022-05-26 15:22:10.038517 35662.53788871488
2022-05-26 15:22:15.051559 35662.53788871488
2022-05-26 15:22:20.063186 35662.53788871488
2022-05-26 15:22:25.065385 35662.53788871488
2022-05-26 15:22:30.075332 35662.53788871488
2022-05-26 15:22:35.085701 35662.53788871488
2022-05-26 15:22:40.089755 35662.53788871488
2022-05-26 15:22:45.102911 35662.53788871488
2022-05-26 15:22:50.113723 35662.53788871488
2022-05-26 15:22:55.118932 35662.53788871488
2022-05-26 15:23:00.124666 35662.53788871488
2022-05-26 15:23:05.136768 35662.53788871488
2022-05-26 15:23:10.146442 35662.53788871488
2022-05-26 15:23:15.158238 35662.53788871488
2022-05-26 15:23:20.169236 35662.53788871488
2022-05-26 15:23:25.184404 35662.53788871488
2022-05-26 15:23:30.190511 35662.53788871488
2022-05-26 15:23:35.201166 35662.53788871488
2022-05-26 15:23:40.215525 35662.53788871488
2022-05-26 15:23:45.222441 35662.53788871488
2022-05-26 15:23:50.229464 35662.53788871488
2022-05-26 15:23:55.231724 35662.53788871488
2022-05-26 15:24:00.239004 35662.53788871488
2022-05-26 15:24:05.253337 35662.53788871488
2022-05-26 15:24:10.254202 35662.53788871488
2022-05-26 15:24:15.264353 35662.53788871488
2022-05-26 15:24:20.279735 35662.53788871488
2022-05-26 15:24:25.292487 35662.53788871488
2022-05-26 15:24:30.294357 35662.53788871488
2022-05-26 15:24:35.296285 35662.53788871488
2022-05-26 15:24:40.310226 35662.53788871488
2022-05-26 15:24:45.321795 35662.53788871488
2022-05-26 15:24:50.328056 35662.53788871488
2022-05-26 15:24:55.329846 35662.53788871488
2022-05-26 15:25:00.333098 35662.53788871488
2022-05-26 15:25:05.341657 35662.53788871488
2022-05-26 15:25:10.350587 35662.53788871488
2022-05-26 15:25:15.359954 35662.53788871488
2022-05-26 15:25:20.363347 35662.53788871488
2022-05-26 15:25:25.364838 35662.53788871488
2022-05-26 15:25:30.380584 35662.53788871488
2022-05-26 15:25:35.387903 35662.53788871488
2022-05-26 15:25:40.392114 35662.53788871488
2022-05-26 15:25:45.398553 35662.53788871488
2022-05-26 15:25:50.406153 35662.53788871488
2022-05-26 15:25:55.407637 35662.53788871488
2022-05-26 15:26:00.420661 35662.53788871488
2022-05-26 15:26:05.424031 35662.53788871488
2022-05-26 15:26:10.428914 35662.53788871488
2022-05-26 15:26:15.433562 35662.53788871488
2022-05-26 15:26:20.448059 35662.53788871488
2022-05-26 15:26:25.462876 35662.53788871488
2022-05-26 15:26:30.467077 35662.53788871488
2022-05-26 15:26:35.476109 35662.53788871488
2022-05-26 15:26:40.483820 35662.53788871488
2022-05-26 15:26:45.483918 35662.53788871488
2022-05-26 15:26:50.488000 35662.53788871488
2022-05-26 15:26:55.488890 35662.53788871488
2022-05-26 15:27:00.495494 35662.53788871488
2022-05-26 15:27:05.509344 35662.53788871488
2022-05-26 15:27:10.518468 35662.53788871488
2022-05-26 15:27:15.525270 35662.53788871488
2022-05-26 15:27:20.536247 35662.53788871488
2022-05-26 15:27:25.545299 35662.53788871488
2022-05-26 15:27:30.560653 35662.53788871488
2022-05-26 15:27:35.563454 35662.53788871488
2022-05-26 15:27:40.573144 35662.53788871488
2022-05-26 15:27:45.583018 35662.53788871488
2022-05-26 15:27:50.595798 35662.53788871488
2022-05-26 15:27:55.609593 35662.53788871488
2022-05-26 15:28:00.611668 35662.53788871488
2022-05-26 15:28:05.622219 35662.53788871488
2022-05-26 15:28:10.629938 35662.53788871488
2022-05-26 15:28:15.633744 35662.53788871488
2022-05-26 15:28:20.640242 35662.53788871488
2022-05-26 15:28:25.649957 35662.53788871488
2022-05-26 15:28:30.655003 35662.53788871488
2022-05-26 15:28:35.669820 35662.53788871488
2022-05-26 15:28:40.684384 35662.53788871488
2022-05-26 15:28:45.684907 35662.53788871488
2022-05-26 15:28:50.697880 35662.53788871488
2022-05-26 15:28:55.704256 35662.53788871488
2022-05-26 15:29:00.705599 35662.53788871488
2022-05-26 15:29:05.711452 35662.53788871488
2022-05-26 15:29:10.726367 35662.53788871488
2022-05-26 15:29:15.733177 35662.53788871488
2022-05-26 15:29:20.740190 35662.53788871488
2022-05-26 15:29:25.753028 35662.53788871488
2022-05-26 15:29:30.761486 35662.53788871488
2022-05-26 15:29:35.771766 35662.53788871488
2022-05-26 15:29:40.777106 35662.53788871488
2022-05-26 15:29:45.778575 35662.53788871488
2022-05-26 15:29:50.788514 35662.53788871488
2022-05-26 15:29:55.790767 35662.53788871488
2022-05-26 15:30:00.795269 35662.53788871488
2022-05-26 15:30:05.800745 35662.53788871488
2022-05-26 15:30:10.811221 35662.53788871488
2022-05-26 15:30:15.813205 35662.53788871488
2022-05-26 15:30:20.817974 35662.53788871488
2022-05-26 15:30:25.822895 35662.53788871488
2022-05-26 15:30:30.826457 35662.53788871488
2022-05-26 15:30:35.834749 35662.53788871488
2022-05-26 15:30:40.849017 35662.53788871488
2022-05-26 15:30:45.853211 35662.53788871488
2022-05-26 15:30:50.868024 35662.53788871488
2022-05-26 15:30:55.874372 35662.53788871488
2022-05-26 15:31:00.886764 35662.53788871488
2022-05-26 15:31:05.895024 35662.53788871488
2022-05-26 15:31:10.909730 35662.53788871488
2022-05-26 15:31:15.912166 35662.53788871488
2022-05-26 15:31:20.916855 35662.53788871488
2022-05-26 15:31:25.925120 35662.53788871488
2022-05-26 15:31:30.934375 35662.53788871488
2022-05-26 15:31:35.934924 35662.53788871488
2022-05-26 15:31:40.946383 35662.53788871488
2022-05-26 15:31:45.949519 35662.53788871488
2022-05-26 15:31:50.962198 35662.53788871488
2022-05-26 15:31:55.976651 35662.53788871488
2022-05-26 15:32:00.980324 35662.53788871488
2022-05-26 15:32:05.982520 35662.53788871488
2022-05-26 15:32:10.997351 35662.53788871488
2022-05-26 15:32:16.010651 35662.53788871488
2022-05-26 15:32:21.015858 35662.53788871488
2022-05-26 15:32:26.022895 35662.53788871488
2022-05-26 15:32:31.035817 35662.53788871488
2022-05-26 15:32:36.041885 35662.53788871488
2022-05-26 15:32:41.042028 35662.53788871488
2022-05-26 15:32:46.055537 35662.53788871488
2022-05-26 15:32:51.070515 35662.53788871488
2022-05-26 15:32:56.077381 35662.53788871488
2022-05-26 15:33:01.083545 35662.53788871488
2022-05-26 15:33:06.091986 35662.53788871488
2022-05-26 15:33:11.093660 35662.53788871488
2022-05-26 15:33:16.099365 35662.53788871488
2022-05-26 15:33:21.102883 35662.53788871488
2022-05-26 15:33:26.111732 35662.53788871488
2022-05-26 15:33:31.124299 35662.53788871488
2022-05-26 15:33:36.137520 35662.53788871488
2022-05-26 15:33:41.138865 35662.53788871488
2022-05-26 15:33:46.141295 35662.53788871488
2022-05-26 15:33:51.147702 35662.53788871488
2022-05-26 15:33:56.153251 35662.53788871488
2022-05-26 15:34:01.157664 35662.53788871488
2022-05-26 15:34:06.171776 35662.53788871488
2022-05-26 15:34:11.181161 35662.53788871488
2022-05-26 15:34:16.181730 35662.53788871488
2022-05-26 15:34:21.187765 35662.53788871488
2022-05-26 15:34:26.196368 35662.53788871488
2022-05-26 15:34:31.211945 35662.53788871488
2022-05-26 15:34:36.218084 35662.53788871488
2022-05-26 15:34:41.220646 35662.53788871488
2022-05-26 15:34:46.226183 35662.53788871488
2022-05-26 15:34:51.227610 35662.53788871488
2022-05-26 15:34:56.234766 35662.53788871488
2022-05-26 15:35:01.237479 35662.53788871488
2022-05-26 15:35:06.246502 35662.53788871488
2022-05-26 15:35:11.254197 35662.53788871488
2022-05-26 15:35:16.267466 35662.53788871488
2022-05-26 15:35:21.273829 35662.53788871488
2022-05-26 15:35:26.286302 35662.53788871488
2022-05-26 15:35:31.295913 35662.53788871488
2022-05-26 15:35:36.303620 35662.53788871488
2022-05-26 15:35:41.314926 35662.53788871488
2022-05-26 15:35:46.316346 35662.53788871488
2022-05-26 15:35:51.328197 35662.53788871488
2022-05-26 15:35:56.337100 35662.53788871488
2022-05-26 15:36:01.341342 35662.53788871488
2022-05-26 15:36:06.348643 35662.53788871488
2022-05-26 15:36:11.358089 35662.53788871488
2022-05-26 15:36:16.371171 35662.53788871488
2022-05-26 15:36:21.384807 35662.53788871488
2022-05-26 15:36:26.399998 35662.53788871488
2022-05-26 15:36:31.410497 35662.53788871488
2022-05-26 15:36:36.424654 35662.53788871488
2022-05-26 15:36:41.432665 35662.53788871488
2022-05-26 15:36:46.440867 35662.53788871488
2022-05-26 15:36:51.455657 35662.53788871488
2022-05-26 15:36:56.465911 35662.53788871488
2022-05-26 15:37:01.468442 35662.53788871488
2022-05-26 15:37:06.475707 35662.53788871488
2022-05-26 15:37:11.488398 35662.53788871488
2022-05-26 15:37:16.492938 35662.53788871488
2022-05-26 15:37:21.497380 35662.53788871488
2022-05-26 15:37:26.506245 35662.53788871488
2022-05-26 15:37:31.512327 35662.53788871488
2022-05-26 15:37:36.525199 35662.53788871488
2022-05-26 15:37:41.540367 35662.53788871488
2022-05-26 15:37:46.547526 35662.53788871488
2022-05-26 15:37:51.555928 35662.53788871488
2022-05-26 15:37:56.565542 35662.53788871488
2022-05-26 15:38:01.571503 35662.53788871488
2022-05-26 15:38:06.580020 35662.53788871488
2022-05-26 15:38:11.586912 35662.53788871488
2022-05-26 15:38:16.593858 35662.53788871488
2022-05-26 15:38:21.600929 35662.53788871488
2022-05-26 15:38:26.610111 35662.53788871488
2022-05-26 15:38:31.624847 35662.53788871488
2022-05-26 15:38:36.635076 35662.53788871488
2022-05-26 15:38:41.641033 35662.53788871488
2022-05-26 15:38:46.648467 35662.53788871488
2022-05-26 15:38:51.656065 35662.53788871488
2022-05-26 15:38:56.660036 35662.53788871488
2022-05-26 15:39:01.661107 35662.53788871488
2022-05-26 15:39:06.663044 35662.53788871488
2022-05-26 15:39:11.671635 35662.53788871488
2022-05-26 15:39:16.685558 35662.53788871488
2022-05-26 15:39:21.692906 35662.53788871488
2022-05-26 15:39:26.696915 35662.53788871488
2022-05-26 15:39:31.709835 35662.53788871488
2022-05-26 15:39:36.711257 35662.53788871488
2022-05-26 15:39:41.714424 35662.53788871488
2022-05-26 15:39:46.722474 35662.53788871488
2022-05-26 15:39:51.722723 35662.53788871488
2022-05-26 15:39:56.725391 35662.53788871488
2022-05-26 15:40:01.737438 35662.53788871488
2022-05-26 15:40:06.739701 35662.53788871488
2022-05-26 15:40:11.739868 35662.53788871488
2022-05-26 15:40:16.749327 35662.53788871488
2022-05-26 15:40:21.751697 35662.53788871488
2022-05-26 15:40:26.764914 35662.53788871488
2022-05-26 15:40:31.767761 35662.53788871488
2022-05-26 15:40:36.778060 35662.53788871488
2022-05-26 15:40:41.783583 35662.53788871488
2022-05-26 15:40:46.798163 35662.53788871488
2022-05-26 15:40:51.807064 35662.53788871488
2022-05-26 15:40:56.808054 35662.53788871488
2022-05-26 15:41:01.814930 35662.53788871488
2022-05-26 15:41:06.820645 35662.53788871488
2022-05-26 15:41:11.825975 35662.53788871488
2022-05-26 15:41:16.828779 35662.53788871488
2022-05-26 15:41:21.831584 35662.53788871488
2022-05-26 15:41:26.839919 35662.53788871488
2022-05-26 15:41:31.851697 35662.53788871488
2022-05-26 15:41:36.866678 35662.53788871488
2022-05-26 15:41:41.877725 35662.53788871488
2022-05-26 15:41:46.892573 35662.53788871488
2022-05-26 15:41:51.902404 35662.53788871488
2022-05-26 15:41:56.913093 35662.53788871488
2022-05-26 15:42:01.924411 35662.53788871488
2022-05-26 15:42:06.934573 35662.53788871488
2022-05-26 15:42:11.948995 35662.53788871488
2022-05-26 15:42:16.958881 35662.53788871488
2022-05-26 15:42:21.962577 35662.53788871488
2022-05-26 15:42:26.977439 35662.53788871488
2022-05-26 15:42:31.988880 35662.53788871488
2022-05-26 15:42:36.993928 35662.53788871488
2022-05-26 15:42:42.009314 35662.53788871488
2022-05-26 15:42:47.019142 35662.53788871488
2022-05-26 15:42:52.026642 35662.53788871488
2022-05-26 15:42:57.037600 35662.53788871488
2022-05-26 15:43:02.037958 35662.53788871488
2022-05-26 15:43:07.045345 35662.53788871488
2022-05-26 15:43:12.056580 35662.53788871488
2022-05-26 15:43:17.062414 35662.53788871488
2022-05-26 15:43:22.072427 35662.53788871488
2022-05-26 15:43:27.076557 35662.53788871488
2022-05-26 15:43:32.082462 35662.53788871488
2022-05-26 15:43:37.097714 35662.53788871488
2022-05-26 15:43:42.106105 35662.53788871488
2022-05-26 15:43:47.118384 35662.53788871488
2022-05-26 15:43:52.121393 35662.53788871488
2022-05-26 15:43:57.122038 35662.53788871488
2022-05-26 15:44:02.130794 35662.53788871488
2022-05-26 15:44:07.138311 35662.53788871488
2022-05-26 15:44:12.141517 35662.53788871488
2022-05-26 15:44:17.141994 35662.53788871488
2022-05-26 15:44:22.150415 35662.53788871488
2022-05-26 15:44:27.156363 35662.53788871488
2022-05-26 15:44:32.159696 35662.53788871488
2022-05-26 15:44:37.168238 35662.53788871488
2022-05-26 15:44:42.172117 35662.53788871488
2022-05-26 15:44:47.185512 35662.53788871488
2022-05-26 15:44:52.200454 35662.53788871488
2022-05-26 15:44:57.211147 35662.53788871488
2022-05-26 15:45:02.220261 35662.53788871488
2022-05-26 15:45:07.225371 35662.53788871488
2022-05-26 15:45:12.226922 35662.53788871488
2022-05-26 15:45:17.239217 35662.53788871488
2022-05-26 15:45:22.240857 35662.53788871488
2022-05-26 15:45:27.255708 35662.53788871488
2022-05-26 15:45:32.265292 35662.53788871488
2022-05-26 15:45:37.279421 35662.53788871488
2022-05-26 15:45:42.292102 35662.53788871488
2022-05-26 15:45:47.299939 35662.53788871488
2022-05-26 15:45:52.304521 35662.53788871488
2022-05-26 15:45:57.319160 35662.53788871488
2022-05-26 15:46:02.327017 35662.53788871488
2022-05-26 15:46:07.337206 35662.53788871488
2022-05-26 15:46:12.351873 35662.53788871488
2022-05-26 15:46:17.361887 35662.53788871488
2022-05-26 15:46:22.372002 35662.53788871488
2022-05-26 15:46:27.378308 35662.53788871488
2022-05-26 15:46:32.393563 35662.53788871488
2022-05-26 15:46:37.406821 35662.53788871488
2022-05-26 15:46:42.407461 35662.53788871488
2022-05-26 15:46:47.411306 35662.53788871488
2022-05-26 15:46:52.419832 35662.53788871488
2022-05-26 15:46:57.428980 35662.53788871488
2022-05-26 15:47:02.441290 35662.53788871488
2022-05-26 15:47:07.452721 35662.53788871488
2022-05-26 15:47:12.467168 35662.53788871488
2022-05-26 15:47:17.471512 35662.53788871488
2022-05-26 15:47:22.482944 35662.53788871488
2022-05-26 15:47:27.489712 35662.53788871488
2022-05-26 15:47:32.496959 35662.53788871488
2022-05-26 15:47:37.500761 35662.53788871488
2022-05-26 15:47:42.512286 35662.53788871488
2022-05-26 15:47:47.515841 35662.53788871488
2022-05-26 15:47:52.522897 35662.53788871488
2022-05-26 15:47:57.530914 35662.53788871488
2022-05-26 15:48:02.531641 35662.53788871488
2022-05-26 15:48:07.531767 35662.53788871488
2022-05-26 15:48:12.538838 35662.53788871488
2022-05-26 15:48:17.545032 35662.53788871488
2022-05-26 15:48:22.547054 35662.53788871488
2022-05-26 15:48:27.559281 35662.53788871488
2022-05-26 15:48:32.561370 35662.53788871488
2022-05-26 15:48:37.569982 35662.53788871488
2022-05-26 15:48:42.574367 35662.53788871488
2022-05-26 15:48:47.574945 35662.53788871488
2022-05-26 15:48:52.588599 35662.53788871488
2022-05-26 15:48:57.593367 35662.53788871488
2022-05-26 15:49:02.596091 35662.53788871488
2022-05-26 15:49:07.609918 35662.53788871488
2022-05-26 15:49:12.620041 35662.53788871488
2022-05-26 15:49:17.627291 35662.53788871488
2022-05-26 15:49:22.630050 35662.53788871488
2022-05-26 15:49:27.640039 35662.53788871488
2022-05-26 15:49:32.654136 35662.53788871488
2022-05-26 15:49:37.668852 35662.53788871488
2022-05-26 15:49:42.669215 35662.53788871488
2022-05-26 15:49:47.671497 35662.53788871488
2022-05-26 15:49:52.675199 35662.53788871488
2022-05-26 15:49:57.684806 35662.53788871488
2022-05-26 15:50:02.697071 35662.53788871488
2022-05-26 15:50:07.701276 35662.53788871488
2022-05-26 15:50:12.705417 35662.53788871488
2022-05-26 15:50:17.713234 35662.53788871488
2022-05-26 15:50:22.718710 35662.53788871488
2022-05-26 15:50:27.732691 35662.53788871488
2022-05-26 15:50:32.746373 35662.53788871488
2022-05-26 15:50:37.748542 35662.53788871488
2022-05-26 15:50:42.760112 35662.53788871488
2022-05-26 15:50:47.766290 35662.53788871488
2022-05-26 15:50:52.771206 35662.53788871488
2022-05-26 15:50:57.780540 35662.53788871488
2022-05-26 15:51:02.790595 35662.53788871488
2022-05-26 15:51:07.801878 35662.53788871488
2022-05-26 15:51:12.804748 35662.53788871488
2022-05-26 15:51:17.806461 35662.53788871488
2022-05-26 15:51:22.817188 35662.53788871488
2022-05-26 15:51:27.829269 35662.53788871488
2022-05-26 15:51:32.844262 35662.53788871488
2022-05-26 15:51:37.853600 35662.53788871488
2022-05-26 15:51:42.857883 35662.53788871488
2022-05-26 15:51:47.863464 35662.53788871488
2022-05-26 15:51:52.869140 35662.53788871488
2022-05-26 15:51:57.876225 35662.53788871488
2022-05-26 15:52:02.889367 35662.53788871488
2022-05-26 15:52:07.900107 35662.53788871488
2022-05-26 15:52:12.910920 35662.53788871488
2022-05-26 15:52:17.925837 35662.53788871488
2022-05-26 15:52:22.929500 35662.53788871488
2022-05-26 15:52:27.939145 35662.53788871488
2022-05-26 15:52:32.954215 35662.53788871488
2022-05-26 15:52:37.966368 35662.53788871488
2022-05-26 15:52:42.978182 35662.53788871488
2022-05-26 15:52:47.990352 35662.53788871488
2022-05-26 15:52:52.997474 35662.53788871488
2022-05-26 15:52:58.000616 35662.53788871488
2022-05-26 15:53:03.015284 35662.53788871488
2022-05-26 15:53:08.024302 35662.53788871488
2022-05-26 15:53:13.024595 35662.53788871488
2022-05-26 15:53:18.035928 35662.53788871488
2022-05-26 15:53:23.045275 35662.53788871488
2022-05-26 15:53:28.053563 35662.53788871488
2022-05-26 15:53:33.054320 35662.53788871488
2022-05-26 15:53:38.065146 35662.53788871488
2022-05-26 15:53:43.066526 35662.53788871488
2022-05-26 15:53:48.073402 35662.53788871488
2022-05-26 15:53:53.076504 35662.53788871488
2022-05-26 15:53:58.078368 35662.53788871488
2022-05-26 15:54:03.091440 35662.53788871488
2022-05-26 15:54:08.096188 35662.53788871488
2022-05-26 15:54:13.111113 35662.53788871488
2022-05-26 15:54:18.111293 35662.53788871488
2022-05-26 15:54:23.122560 35662.53788871488
2022-05-26 15:54:28.131652 35662.53788871488
2022-05-26 15:54:33.139962 35662.53788871488
2022-05-26 15:54:38.152436 35662.53788871488
2022-05-26 15:54:43.155290 35662.53788871488
2022-05-26 15:54:48.169606 35662.53788871488
2022-05-26 15:54:53.179607 35662.53788871488
2022-05-26 15:54:58.190141 35662.53788871488
2022-05-26 15:55:03.195348 35662.53788871488
2022-05-26 15:55:08.210015 35662.53788871488
2022-05-26 15:55:13.221386 35662.53788871488
2022-05-26 15:55:18.221983 35662.53788871488
2022-05-26 15:55:23.232334 35662.53788871488
2022-05-26 15:55:28.234999 35662.53788871488
2022-05-26 15:55:33.237609 35662.53788871488
2022-05-26 15:55:38.249250 35662.53788871488
2022-05-26 15:55:43.255758 35662.53788871488
2022-05-26 15:55:48.267544 35662.53788871488
2022-05-26 15:55:53.280298 35662.53788871488
2022-05-26 15:55:58.284154 35662.53788871488
2022-05-26 15:56:03.291672 35662.53788871488
2022-05-26 15:56:08.292063 35662.53788871488
2022-05-26 15:56:13.305671 35662.53788871488
2022-05-26 15:56:18.316904 35662.53788871488
2022-05-26 15:56:23.321835 35662.53788871488
2022-05-26 15:56:28.326031 35662.53788871488
2022-05-26 15:56:33.339412 35662.53788871488
2022-05-26 15:56:38.354250 35662.53788871488
2022-05-26 15:56:43.360928 35662.53788871488
2022-05-26 15:56:48.369791 35662.53788871488
2022-05-26 15:56:53.370887 35662.53788871488
2022-05-26 15:56:58.373844 35662.53788871488
2022-05-26 15:57:03.378407 35662.53788871488
2022-05-26 15:57:08.385614 35662.53788871488
2022-05-26 15:57:13.392340 35662.53788871488
2022-05-26 15:57:18.403258 35662.53788871488
2022-05-26 15:57:23.417909 35662.53788871488
2022-05-26 15:57:28.431628 35662.53788871488
2022-05-26 15:57:33.441584 35662.53788871488
2022-05-26 15:57:38.444579 35662.53788871488
2022-05-26 15:57:43.456503 35662.53788871488
2022-05-26 15:57:48.462463 35662.53788871488
2022-05-26 15:57:53.469307 35662.53788871488
2022-05-26 15:57:58.480906 35662.53788871488
2022-05-26 15:58:03.487056 35662.53788871488
2022-05-26 15:58:08.490113 35662.53788871488
2022-05-26 15:58:13.496103 35662.53788871488
2022-05-26 15:58:18.509871 35662.53788871488
2022-05-26 15:58:23.510478 35662.53788871488
2022-05-26 15:58:28.520972 35662.53788871488
2022-05-26 15:58:33.521002 35662.53788871488
2022-05-26 15:58:38.534501 35662.53788871488
2022-05-26 15:58:43.537400 35662.53788871488
2022-05-26 15:58:48.546727 35662.53788871488
2022-05-26 15:58:53.557544 35662.53788871488
2022-05-26 15:58:58.569953 35662.53788871488
2022-05-26 15:59:03.586158 35662.53788871488
2022-05-26 15:59:08.596034 35662.53788871488
2022-05-26 15:59:13.598082 35662.53788871488
2022-05-26 15:59:18.606145 35662.53788871488
2022-05-26 15:59:23.607766 35662.53788871488
2022-05-26 15:59:28.607187 35662.53788871488
2022-05-26 15:59:33.615773 35662.53788871488
2022-05-26 15:59:38.623777 35662.53788871488
2022-05-26 15:59:43.626365 35662.53788871488
2022-05-26 15:59:48.637578 35662.53788871488
2022-05-26 15:59:53.638392 35662.53788871488
2022-05-26 15:59:58.651964 35662.53788871488
2022-05-26 16:00:03.666573 35662.53788871488
2022-05-26 16:00:08.678098 35662.53788871488
2022-05-26 16:00:13.687196 35662.53788871488
2022-05-26 16:00:18.699317 35662.53788871488
2022-05-26 16:00:23.700388 35662.53788871488
2022-05-26 16:00:28.711136 35662.53788871488
2022-05-26 16:00:33.724804 35662.53788871488
2022-05-26 16:00:38.737062 35662.53788871488
2022-05-26 16:00:43.748527 35662.53788871488
2022-05-26 16:00:48.758776 35662.53788871488
2022-05-26 16:00:53.768843 35662.53788871488
2022-05-26 16:00:58.775396 35662.53788871488
2022-05-26 16:01:03.788158 35662.53788871488
2022-05-26 16:01:08.800240 35662.53788871488
2022-05-26 16:01:13.810970 35662.53788871488
2022-05-26 16:01:18.816820 35662.53788871488
2022-05-26 16:01:23.827680 35662.53788871488
2022-05-26 16:01:28.828827 35662.53788871488
2022-05-26 16:01:33.832257 35662.53788871488
2022-05-26 16:01:38.843006 35662.53788871488
2022-05-26 16:01:43.850557 35662.53788871488
2022-05-26 16:01:48.853655 35662.53788871488
2022-05-26 16:01:53.861411 35662.53788871488
2022-05-26 16:01:58.864066 35662.53788871488
2022-05-26 16:02:03.874245 35662.53788871488
2022-05-26 16:02:08.888489 35662.53788871488
2022-05-26 16:02:13.903886 35662.53788871488
2022-05-26 16:02:18.905510 35662.53788871488
2022-05-26 16:02:23.911270 35662.53788871488
2022-05-26 16:02:28.921025 35662.53788871488
2022-05-26 16:02:33.931814 35662.53788871488
2022-05-26 16:02:38.932613 35662.53788871488
2022-05-26 16:02:43.938829 35662.53788871488
2022-05-26 16:02:48.944609 35662.53788871488
2022-05-26 16:02:53.947578 35662.53788871488
2022-05-26 16:02:58.958114 35662.53788871488
2022-05-26 16:03:03.964235 35662.53788871488
2022-05-26 16:03:08.967909 35662.53788871488
2022-05-26 16:03:13.980873 35662.53788871488
2022-05-26 16:03:18.993846 35662.53788871488
2022-05-26 16:03:24.005948 35662.53788871488
2022-05-26 16:03:29.016785 35662.53788871488
2022-05-26 16:03:34.032067 35662.53788871488
2022-05-26 16:03:39.037383 35662.53788871488
2022-05-26 16:03:44.045782 35662.53788871488
2022-05-26 16:03:49.054479 35662.53788871488
2022-05-26 16:03:54.059417 35662.53788871488
2022-05-26 16:03:59.071903 35662.53788871488
2022-05-26 16:04:04.085119 35662.53788871488
2022-05-26 16:04:09.098161 35662.53788871488
2022-05-26 16:04:14.098623 35662.53788871488
2022-05-26 16:04:19.111997 35662.53788871488
2022-05-26 16:04:24.119303 35662.53788871488
2022-05-26 16:04:29.126819 35662.53788871488
2022-05-26 16:04:34.128714 35662.53788871488
2022-05-26 16:04:39.136515 35662.53788871488
2022-05-26 16:04:44.142040 35662.53788871488
2022-05-26 16:04:49.145262 35662.53788871488
2022-05-26 16:04:54.156076 35662.53788871488
2022-05-26 16:04:59.157124 35662.53788871488
2022-05-26 16:05:04.157717 35662.53788871488
2022-05-26 16:05:09.161797 35662.53788871488
